Incident energy;MT=102 : (z,γ);MT=18 : (z,fission)
Incident energy;;
Incident energy;σ(E);σ(E)
1.0E-5;5722.428;30933.41
1.0625E-5;5551.563;30009.75
1.125E-5;5395.141;29164.18
1.1875E-5;5251.237;28386.27
1.25E-5;5118.265;27667.45
1.375E-5;4880.059;26379.77
1.5E-5;4672.287;25256.61
1.625E-5;4488.974;24265.66
1.75E-5;4325.671;23382.88
1.875E-5;4178.982;22589.92
2.0E-5;4046.27;21872.5
2.145532E-5;3906.617;21117.57
2.291063E-5;3780.492;20435.76
2.436594E-5;3665.841;19815.98
2.582125E-5;3561.025;19249.37
2.727657E-5;3464.713;18728.73
2.873188E-5;3375.815;18248.16
3.16425E-5;3216.786;17388.47
3.455313E-5;3078.299;16639.84
3.746375E-5;2956.281;15980.23
4.037438E-5;2847.707;15393.29
4.3285E-5;2750.277;14866.6
4.66425E-5;2649.419;14321.37
5.0E-5;2558.898;13832.02
5.3125E-5;2482.477;13418.89
5.625E-5;2412.515;13040.69
5.9375E-5;2348.152;12692.74
6.25E-5;2288.678;12371.22
6.875E-5;2182.135;11795.26
7.5E-5;2089.202;11292.86
8.125E-5;2007.21;10849.61
8.75E-5;1934.165;10454.73
9.375E-5;1868.552;10100.02
1.0E-4;1809.189;9779.098
1.0625E-4;1755.144;9486.922
1.125E-4;1705.666;9219.439
1.1875E-4;1660.147;8973.357
1.25E-4;1618.086;8745.965
1.375E-4;1542.735;8338.603
1.5E-4;1477.009;7983.272
1.625E-4;1419.018;7669.76
1.75E-4;1367.356;7390.458
1.875E-4;1320.948;7139.562
2.0E-4;1278.961;6912.562
2.1875E-4;1222.86;6609.259
2.375E-4;1173.539;6342.606
2.5625E-4;1129.733;6105.768
2.75E-4;1090.484;5893.572
2.9375E-4;1055.054;5702.019
3.125E-4;1022.861;5527.965
3.3125E-4;993.4399;5368.896
3.5E-4;966.414;5222.778
3.875E-4;918.3674;4963.009
4.25E-4;876.8241;4738.402
4.625E-4;840.4373;4541.674
5.0E-4;808.221;4367.495
5.3125E-4;784.0197;4236.651
5.625E-4;761.862;4116.857
5.9375E-4;741.4753;4006.639
6.25E-4;722.6354;3904.785
6.875E-4;688.8803;3722.3
7.5E-4;659.4315;3563.102
8.125E-4;633.4439;3422.622
8.75E-4;610.2878;3297.456
9.375E-4;589.4829;3185.007
0.001;570.6558;3083.255
0.0010625;553.5112;2990.605
0.001125;537.812;2905.773
0.0011875;523.3653;2827.718
0.00125;510.0126;2755.58
0.001375;486.0825;2626.324
0.0015;465.1973;2513.544
0.001625;446.7594;2414.01
0.00175;430.3233;2325.313
0.001875;415.5496;2245.615
0.002;402.1744;2173.491
0.0021875;384.2888;2077.097
0.002375;368.5488;1992.326
0.0025625;354.5548;1917.018
0.00275;342.004;1849.532
0.0029375;330.6622;1788.603
0.003125;320.3449;1733.23
0.0033125;310.9046;1682.615
0.0035;302.2218;1636.111
0.003875;286.7537;1553.405
0.00425;273.34;1481.856
0.004625;261.5564;1419.166
0.005;251.0937;1363.654
0.0053125;243.2144;1321.958
0.005625;235.9842;1283.792
0.0059375;229.3168;1248.685
0.00625;223.1406;1216.246
0.006875;212.0329;1158.132
0.0075;202.2903;1107.424
0.008125;193.647;1062.67
0.00875;185.9072;1022.797
0.009375;178.9223;986.9879
0.01;172.5765;954.6062
0.010625;166.7781;925.1453
0.01125;161.4526;898.1944
0.011875;156.5384;873.4145
0.0125;151.9842;850.5218
0.01375;143.7902;809.4872
0.015;136.605;773.6318
0.01625;130.2428;741.9386
0.0175;124.5658;713.6589
0.01875;119.466;688.2153
0.02;114.8582;665.1564
0.021325;110.4346;642.9204
0.02265;106.4186;622.617
0.023975;102.7538;603.9645
0.0253;99.39421;586.7371
0.02684375;95.81563;568.2257
0.0283875;92.55272;551.1773
0.02993125;89.56579;535.4072
0.031475;86.82197;520.7648
0.03301875;84.29319;507.1229
0.0345625;81.9538;494.3662
0.03765;77.75278;471.1025
0.0407375;74.07827;450.3475
0.043825;70.83835;431.6954
0.0469125;67.96019;414.8228
0.05;65.38478;399.4649
0.053125;63.0385;385.2449
0.05625;60.91575;372.1799
0.059375;58.98571;360.1253
0.0625;57.22403;348.9655
0.065625;55.61223;338.6122
0.06875;54.13377;328.984
0.075;51.50362;311.525
0.08125;49.23528;296.0788
0.0875;47.27459;282.3595
0.09375;45.57362;270.1044
0.1;44.09431;259.0985
0.107309;42.61044;247.607
0.114618;41.36094;237.4144
0.121927;40.31887;228.3511
0.129236;39.46547;220.2915
0.136545;38.78738;213.1389
0.143854;38.27537;206.8193
0.151163;37.92357;201.2767
0.1584719;37.7288;196.4707
0.1637875;37.68515;193.4219
0.1728407;37.80149;189.0748
0.1818938;38.16215;185.7879
0.1909469;38.76971;183.5601
0.2;39.61991;182.3842
0.2085463;40.63598;182.2364
0.2170926;41.83672;182.9958
0.2256388;43.18129;184.5986
0.2376234;45.17188;187.9895
0.2496079;47.01533;192.07
0.2556002;47.7583;194.0433
0.2615924;48.30364;195.75
0.2675847;48.59794;197.0149
0.2735769;48.59997;197.6775
0.2787838;48.3436;197.662
0.2833399;47.91639;197.1462
0.2878959;47.30251;196.1381
0.2924519;46.51141;194.6345
0.2970079;45.55849;192.6501
0.3015639;44.46392;190.2156
0.3061199;43.25153;187.3766
0.3152319;40.5797;180.7305
0.324344;37.74928;173.2375
0.333456;34.92212;165.3519
0.342568;32.21275;157.4348
0.35168;29.70044;149.7647
0.3580532;28.0832;144.6465
0.3644263;26.5855;139.7717
0.3707994;25.20532;135.1568
0.3771725;23.93787;130.8069
0.3835457;22.77657;126.7188
0.3899188;21.71403;122.8846
0.3962919;20.74262;119.293
0.402665;19.85475;115.9311
0.4073;19.25693;113.6213
0.4130938;18.561;110.8824
0.4188875;17.91681;108.2965
0.4246813;17.31963;105.8525
0.430475;16.76554;103.5415
0.4362688;16.2509;101.3546
0.4420625;15.77229;99.28344
0.45365;14.91065;95.4558
0.4652375;14.15886;92.00119
0.476825;13.50086;88.87716
0.5;12.41121;83.46527
0.53125;11.26906;77.44556
0.5625;10.39286;72.54102
0.59375;9.712795;68.51585
0.625;9.178673;65.18569
0.65625;8.759336;62.42806
0.6875;8.442021;60.19432
0.75;8.045978;56.95793
0.78125;7.965697;55.92605
0.8125;7.984091;55.35646
0.84375;8.112922;55.26521
0.875;8.382998;55.7377
0.90625;8.845293;56.91376
0.9375;9.570359;58.97415
0.953125;10.07262;60.43974
0.96875;10.70882;62.29836
0.984375;11.5083;64.60984
1.0;12.51272;67.45583
1.0124;13.49443;70.16598
1.0248;14.67893;73.33885
1.038475;16.269;77.4332
1.05215;18.2138;82.18765
1.065825;20.5683;87.56701
1.0795;23.35646;93.37607
1.10685;29.8674;104.2468
1.120525;33.01766;107.4637
1.1342;35.45305;107.5507
1.144775;36.50401;104.8996
1.15535;36.63697;99.81863
1.168569;35.47137;90.61201
1.181788;33.07704;79.46019
1.195007;29.94201;67.84955
1.208225;26.56328;57.00534
1.2188;23.93759;49.38373
1.225388;22.40081;45.18945
1.234387;20.46656;40.1568
1.243385;18.7461;35.89771
1.252384;17.24591;32.36121
1.261382;15.9583;29.50192
1.270381;14.86225;27.28415
1.279379;13.92447;25.67256
1.288377;13.10042;24.60325
1.297375;12.34258;23.95978
1.306;11.64322;23.58792
1.314625;10.95458;23.29474
1.32325;10.28031;22.95697
1.339786;9.087823;22.02485
1.356321;8.109706;20.86797
1.372856;7.353754;19.76292
1.389391;6.764885;18.83406
1.405927;6.293705;18.08744
1.422462;5.908668;17.49073
1.455532;5.320401;16.61474
1.488603;4.896446;16.00608
1.521673;4.570794;15.53736
1.554743;4.321249;15.16322
1.587813;4.129821;14.85076
1.649641;3.892156;14.36908
1.711469;3.792329;13.97433
1.747536;3.806445;13.77699
1.783602;3.892179;13.60589
1.819669;4.087813;13.47006
1.837702;4.254641;13.4228
1.855735;4.489594;13.39513
1.876345;4.881121;13.39812
1.88665;5.149709;13.41984
1.896954;5.488011;13.46079
1.907259;5.920105;13.52748
1.917564;6.481123;13.62944
1.927869;7.225117;13.78136
1.933021;7.690841;13.88287
1.938173;8.238168;14.00661
1.945902;9.256047;14.24585
1.95363;10.59118;14.57147
1.958783;11.7178;14.85296
1.963935;13.08722;15.20057
1.969087;14.75503;15.62945
1.974239;16.7824;16.15631
1.979392;19.23163;16.79816
1.984544;22.15502;17.56935
1.989696;25.58452;18.47869
1.994848;29.5134;19.52449
2.0;33.87931;20.68995
2.01;43.03993;23.14147
2.01635;48.6677;24.64865
2.0227;53.45641;25.92895
2.02905;56.81577;26.8214
2.033819;58.11582;27.15927
2.038588;58.24293;27.17801
2.043369;57.18365;26.87363
2.04815;55.02402;26.26934
2.054525;50.73828;25.07986
2.0609;45.36268;23.59235
2.065679;40.98502;22.3816
2.077625;30.30358;19.42311
2.083598;25.66157;18.13282
2.08957;21.67572;17.02066
2.095543;18.35733;16.08992
2.101515;15.65559;15.32695
2.107488;13.48472;14.70853
2.11346;11.75155;14.20935
2.120627;10.12529;13.73398
2.127794;8.873959;13.3609
2.134962;7.898669;13.06318
2.142129;7.12714;12.82114
2.149296;6.507139;12.62052
2.156463;6.001537;12.45121
2.163631;5.583689;12.30592
2.170798;5.234422;12.17942
2.185132;4.687957;11.96811
2.194688;4.406361;11.84991
2.212606;3.999464;11.66145
2.230524;3.700833;11.50253
2.248442;3.474841;11.36322
2.26636;3.300348;11.23752
2.302196;3.05469;11.01185
2.338032;2.892314;10.80367
2.373868;2.78233;10.60112
2.409704;2.709963;10.3953
2.481375;2.649379;9.934772
2.534125;2.67351;9.501953
2.586875;2.779953;8.910458
2.61325;2.88208;8.527008
2.639625;3.035698;8.080881
2.666;3.268675;7.606211
2.692375;3.607299;7.256915
2.702313;3.762564;7.228903
2.71225;3.928765;7.301175
2.722188;4.099648;7.5052
2.732125;4.266098;7.868549
2.742063;4.416982;8.408478
2.752;4.540558;9.125297
2.761925;4.626608;9.997752
2.77185;4.668856;10.98663
2.786335;4.650532;12.52514
2.800819;4.553293;14.01673
2.815304;4.409589;15.32387
2.829788;4.255328;16.38427
2.844273;4.11916;17.20785
2.858757;4.018562;17.8478
2.873241;3.961185;18.37096
2.887725;3.948354;18.8387
2.908847;4.00671;19.52212
2.929969;4.156475;20.31277
2.951091;4.408004;21.31221
2.972213;4.782706;22.62268
2.993335;5.317106;24.36834
3.003896;5.661559;25.45416
3.014457;6.070143;26.7148
3.025018;6.554661;28.17868
3.035579;7.128674;29.87609
3.04614;7.806893;31.83635
3.0567;8.603512;34.08219
3.06784;9.583995;36.76855
3.078979;10.7101;39.75267
3.101257;13.30351;46.19743
3.112396;14.6483;49.25171
3.123535;15.89082;51.80208
3.134674;16.90514;53.51941
3.145813;17.57126;54.12648
3.155725;17.80055;53.60653
3.16316;17.7312;52.55982
3.170594;17.46021;50.99816
3.185463;16.39702;46.66057
3.200332;14.85993;41.41501
3.2152;13.14552;36.10037
3.231424;11.35591;30.92403
3.247647;9.825413;26.74619
3.263871;8.611369;23.59754
3.280094;7.697387;21.34054
3.296318;7.038539;19.79435
3.312541;6.588057;18.79802
3.328765;6.30735;18.22788
3.344988;6.169014;17.99791
3.363916;6.166827;18.09042
3.382843;6.330165;18.5377
3.401771;6.67149;19.34532
3.420698;7.226402;20.56247
3.430162;7.603413;21.35412
3.439626;8.062193;22.2914
3.44909;8.618619;23.39836
3.458553;9.293258;24.70568
3.468017;10.11324;26.25311
3.47748;11.1138;28.0909
3.486944;12.34164;30.2838
3.496407;13.85707;32.91212
3.507223;16.04166;36.57661
3.512631;17.3569;38.72308
3.518038;18.84723;41.1082
3.527502;21.94175;45.9211
3.536966;25.74676;51.61728
3.54643;30.33822;58.21074
3.555893;35.71601;65.5827
3.570597;45.28209;77.77927
3.5853;55.08981;88.80105
3.5913;58.67165;92.24488
3.5973;61.75865;94.75235
3.6033;64.18948;96.13952
3.6093;65.82873;96.27494
3.615313;66.58182;95.09182
3.624332;65.95904;90.89692
3.63335;63.32975;84.1599
3.645375;57.31593;72.43121
3.6574;49.58707;59.40514
3.666691;43.27329;49.61781
3.675982;37.20466;40.73522
3.685273;31.70337;33.07703
3.689918;29.22118;29.742
3.694563;26.9295;26.73121
3.699209;24.828;24.03021
3.703854;22.9125;21.62088
3.708499;21.17365;19.47996
3.713144;19.6001;17.5832
3.71779;18.17875;15.90571
3.722435;16.89679;14.42442
3.72708;15.74058;13.11652
3.731725;14.69727;11.96141
3.736947;13.64428;10.82223
3.742169;12.70328;9.829419
3.747391;11.8604;8.962814
3.752613;11.1035;8.205121
3.757835;10.422;7.54159
3.763057;9.8068;6.959665
3.7735;8.745059;5.999483
3.781734;8.03986;5.397973
3.789968;7.429941;4.905336
3.798202;6.899981;4.501143
3.806435;6.437532;4.168949
3.814669;6.032162;3.895321
3.822902;5.675382;3.669491
3.839369;5.07989;3.327699
3.855837;4.60672;3.091859
3.872304;4.225198;2.928602
3.888771;3.913765;2.816156
3.905238;3.656682;2.739815
3.938173;3.260497;2.657041
3.971107;2.973437;2.629443
4.004042;2.761606;2.632338
4.036976;2.60383;2.652104
4.069911;2.486404;2.680845
4.102845;2.401023;2.714104
4.168714;2.297742;2.78527
4.234582;2.264788;2.857522
4.281926;2.281613;2.910223
4.329269;2.333539;2.965109
4.376612;2.424201;3.024211
4.423955;2.570319;3.091813
4.471298;2.795608;3.173551
4.49497;2.949651;3.222204
4.518641;3.14131;3.277942
4.542313;3.3818;3.342738
4.565984;3.688322;3.419459
4.589656;4.088396;3.512501
4.613327;4.624574;3.628332
4.629795;5.11236;3.727373
4.646262;5.733709;3.847076
4.662729;6.544085;3.994977
4.670963;7.046457;4.08299
4.679196;7.634124;4.183036
4.690003;8.572733;4.337431
4.70081;9.768412;4.526394
4.706214;10.49513;4.637812
4.711617;11.33171;4.763389
4.71702;12.30239;4.905998
4.722423;13.43769;5.069201
4.727827;14.7764;5.257474
4.73323;16.36632;5.476237
4.738633;18.26759;5.732237
4.744036;20.5533;6.033544
4.74944;23.31133;6.389717
4.754843;26.64211;6.811453
4.760246;30.65987;7.310692
4.765649;35.48641;7.899815
4.77131;41.5445;8.626543
4.77697;48.75216;9.476733
4.782631;57.21022;10.45846
4.788291;66.96181;11.57274
4.793952;77.98077;12.8125
4.799612;90.13577;14.15878
4.810933;116.7719;17.03466
4.825342;150.2372;20.47661
4.831482;162.1574;21.6271
4.837621;171.5378;22.46908
4.843761;177.7298;22.93907
4.8499;180.2843;22.99787
4.852713;180.1786;22.88381
4.861151;175.1084;22.03013
4.869588;163.5908;20.50544
4.88026;142.2235;17.91545
4.890932;117.0506;15.02044
4.901604;91.97637;12.24412
4.90694;80.41172;10.99648
4.912275;69.81547;9.872834
4.916263;62.60333;9.119977
4.92025;56.02647;8.4431
4.924238;50.08289;7.840607
4.928225;44.75961;7.30979
4.932213;40.02467;6.846074
4.9362;35.8417;6.444517
4.940188;32.16381;6.099244
4.944175;28.94499;5.804581
4.948163;26.13508;5.554599
4.95215;23.68817;5.343905
4.956138;21.55824;5.167257
4.960125;19.705;5.020072
4.964113;18.09007;4.898106
4.9681;16.68094;4.797755
4.976075;14.3654;4.649528
4.98405;12.56886;4.555147
4.992025;11.15291;4.500182
5.0;10.01852;4.474568
5.010599;8.828856;4.474345
5.021197;7.902165;4.503224
5.031796;7.16536;4.554622
5.042394;6.569957;4.624415
5.052993;6.082359;4.710012
5.063591;5.678873;4.809745
5.07419;5.342059;4.922607
5.084788;5.059026;5.047992
5.105985;4.617313;5.335637
5.127182;4.299797;5.673503
5.148379;4.07385;6.064779
5.169575;3.918194;6.513166
5.205063;3.777018;7.400758
5.24055;3.755741;8.472431
5.271602;3.830116;9.568648
5.302654;4.011094;10.80863
5.31818;4.16177;11.47874
5.333706;4.378608;12.17992
5.349232;4.701374;12.91083
5.356995;4.922208;13.28716
5.364757;5.197289;13.67051
5.373629;5.595441;14.11688
5.3825;6.103449;14.5707
5.390074;6.639117;14.96217
5.397647;7.277592;15.35427
5.405221;8.020347;15.74272
5.412794;8.858071;16.12134
5.443088;12.50153;17.36743
5.453851;13.46277;17.63404
5.464613;13.98291;17.78369
5.471775;14.03518;17.82044
5.478216;13.8749;17.81547
5.484657;13.52947;17.78036
5.497538;12.38424;17.64686
5.5233;9.289013;17.30323
5.53125;8.383107;17.20873
5.5392;7.573289;17.12412
5.5498;6.66816;17.02437
5.5604;5.9617;16.93391
5.571;5.429431;16.84602
5.5816;5.036567;16.75524
5.58976;4.807271;16.68115
5.597919;4.626589;16.60256
5.614238;4.369514;16.4317
5.630557;4.204628;16.246
5.646875;4.097985;16.05196
5.679513;3.993049;15.66722
5.71215;3.982042;15.32895
5.7579;4.083623;15.01122
5.80365;4.31475;14.95829
5.836522;4.567608;15.13031
5.869394;4.90842;15.52637
5.902266;5.361851;16.2119
5.935138;5.96132;17.27159
5.96801;6.754562;18.82404
5.984446;7.244666;19.8359
6.000882;7.811607;21.03929
6.017318;8.46882;22.46453
6.033754;9.231907;24.14423
6.05019;10.11831;26.11
6.066625;11.14627;28.38601
6.085882;12.5543;31.4563
6.105138;14.20278;34.92135
6.124394;16.10304;38.65879
6.14365;18.25641;42.44603
6.162907;20.67042;45.97187
6.182163;23.39752;48.89627
6.201419;26.60765;50.96439
6.211047;28.5085;51.65539
6.220675;30.71587;52.14632
6.229238;33.04098;52.45764
6.2378;35.84065;52.71073
6.248504;40.28931;53.06926
6.253856;43.04934;53.32544
6.259207;46.27176;53.67524
6.264559;50.05687;54.15652
6.26991;54.52002;54.8117
6.275262;59.79843;55.68851
6.280613;66.04421;56.83852
6.288092;76.72301;59.00952
6.295571;90.13286;61.97938
6.30305;106.7843;65.89769
6.310529;127.1294;70.88691
6.318008;151.4729;77.01565
6.325487;179.8642;84.26801
6.332966;211.9875;92.51383
6.340444;247.0659;101.4851
6.351825;303.1193;115.5687
6.361088;347.1017;126.1907
6.37035;385.0618;134.7287
6.379613;412.8019;140.0149
6.388875;426.9624;141.1813
6.392;428.3055;140.5631
6.399813;423.8622;136.7794
6.407625;408.7197;130.0079
6.418063;374.2422;117.162
6.4285;328.2799;101.5052
6.438938;276.913;84.86823
6.449375;225.8324;68.88156
6.456458;193.5745;59.01164
6.46354;164.3152;50.19683
6.470622;138.5219;42.53356
6.477704;116.3348;36.02492
6.484786;97.63706;30.6039
6.491868;82.13824;26.15879
6.49895;69.45049;22.55588
6.506032;59.15093;19.65711
6.510585;53.59707;18.10422
6.515138;48.75666;16.75677
6.519691;44.53599;15.5863
6.524243;40.85147;14.56771
6.528796;37.62669;13.6784
6.533349;34.7971;12.89941
6.542454;30.1054;11.60925
6.55156;26.41347;10.59331
6.560665;23.46122;9.778405
6.56977;21.06227;9.113001
6.578875;19.08419;8.561028
6.589155;17.23865;8.04247
6.599435;15.71129;7.610238
6.609715;14.43239;7.246081
6.619994;13.35132;6.936905
6.630274;12.43022;6.673025
6.640554;11.64077;6.447292
6.661113;10.37426;6.089839
6.681673;9.427758;5.834692
6.702232;8.723237;5.664642
6.722791;8.210577;5.570719
6.74335;7.858423;5.550268
6.768607;7.620449;5.630565
6.793863;7.589194;5.844505
6.808596;7.671604;6.044191
6.823329;7.837113;6.311712
6.838062;8.098265;6.661832
6.852794;8.47396;7.114899
6.867527;8.992442;7.699598
6.88226;9.69603;8.457076
6.896993;10.64944;9.448203
6.911725;11.95347;10.76523
6.922147;13.17148;11.96878
6.932569;14.72538;13.47762
6.942991;16.72772;15.38916
6.953413;19.32819;17.83096
6.958624;20.9107;19.29941
6.963835;22.71725;20.96262
6.969046;24.77727;22.84461
6.974257;27.12135;24.97003
6.979468;29.78015;27.36312
6.984679;32.78297;30.04643
6.98989;36.15578;33.03917
6.9951;39.91827;36.3546
7.001313;44.93177;40.73921
7.007525;50.51644;45.58374
7.01995;63.25356;56.49458
7.0448;91.84189;80.29438
7.054757;102.287;88.66791
7.064713;110.6715;95.12652
7.074669;116.086;98.93618
7.084625;117.902;99.62143
7.092369;116.6711;97.90656
7.100113;113.2125;94.33376
7.107857;107.7741;89.14309
7.1156;100.7297;82.67574
7.12955;85.44936;69.08854
7.1435;69.15441;54.98667
7.150475;61.34977;48.34231
7.15745;54.04836;42.18824
7.164425;47.37727;36.62021
7.1714;41.40482;31.68404
7.1807;34.5544;26.08815
7.18535;31.59091;23.6932
7.19;28.91644;21.5477
7.195323;26.18585;19.37511
7.200645;23.77945;17.47799
7.205968;21.66419;15.82643
7.21129;19.8089;14.39245
7.216613;18.18218;13.14843
7.221935;16.75605;12.06985
7.227257;15.50409;11.13388
7.232579;14.40295;10.32049
7.243224;12.57323;8.993555
7.253868;11.13283;7.976016
7.264513;9.982275;7.185184
7.275157;9.049799;6.562165
7.286474;8.239554;6.036877
7.297791;7.572356;5.618029
7.309108;7.016037;5.280297
7.320424;6.547216;5.00553
7.343058;5.806841;4.59519
7.365691;5.257233;4.316458
7.388325;4.841889;4.128111
7.410958;4.524728;4.004304
7.433592;4.281405;3.927435
7.456225;4.095331;3.884486
7.496463;3.873753;3.858201
7.5367;3.762335;3.836593
7.565725;3.735121;3.769038
7.59475;3.737909;3.607765
7.623775;3.752361;3.323615
7.6528;3.759068;2.932652
7.681825;3.746245;2.506209
7.699966;3.728635;2.264883
7.718107;3.706998;2.067631
7.736248;3.685395;1.926469
7.754388;3.667903;1.844788
7.767812;3.659603;1.820683
7.781235;3.656361;1.82415
7.793569;3.658381;1.848473
7.816696;3.675914;1.938383
7.839823;3.711577;2.072258
7.86295;3.764761;2.238024
7.886077;3.83449;2.428253
7.932331;4.020802;2.869904
7.978585;4.27007;3.395362
8.024839;4.587837;4.023382
8.071093;4.984607;4.784815
8.09422;5.218448;5.2303
8.117347;5.48017;5.729186
8.140474;5.773393;6.290202
8.1636;6.102273;6.923351
8.19752;6.660072;8.008394
8.23144;7.326608;9.324137
8.26536;8.130167;10.93669
8.299279;9.109489;12.93655
8.316239;9.681228;14.1195
8.333199;10.31881;15.45049
8.350159;11.03267;16.95399
8.367118;11.83536;18.65942
8.384078;12.74226;20.60289
8.401038;13.77209;22.82844
8.417998;14.9483;25.39119
8.434957;16.30056;28.36112
8.459625;18.66353;33.60075
8.477257;20.72113;38.2053
8.494888;23.17899;43.74659
8.512519;26.15086;50.49494
8.53015;29.79256;58.82197
8.547782;34.32253;69.25099
8.556598;37.01306;75.47624
8.565413;40.05135;82.53032
8.574229;43.49856;90.56173
8.583044;47.4261;99.74483
8.59186;51.92041;110.2916
8.600675;57.0807;122.4471
8.608091;62.02238;134.1294
8.615507;67.59374;147.3452
8.622923;73.8774;162.3032
8.630338;80.95874;179.2219
8.637754;88.92633;198.3305
8.645169;97.85979;219.8407
8.652585;107.8317;243.9509
8.66;118.8891;270.8025
8.671183;137.653;316.6372
8.682366;158.8008;368.6928
8.693549;181.9136;426.0818
